# Matter power spectrum P(k) at redshift z=5
# for k=1.04684e-05 to 1.49786 h/Mpc,
# number of wavenumbers equal to 525
#    1:k (h/Mpc)              2:P (Mpc/h)^3        
       1.046838254073e-05       2.121031172874e+00 
       2.339239294690e-05       4.611940531609e+00 
       3.636211258110e-05       7.062338000533e+00 
       4.941267169675e-05       9.497465625177e+00 
       6.257978506766e-05       1.193189746194e+01 
       7.590007257106e-05       1.437668705436e+01 
       8.941139008165e-05       1.684137451360e+01 
       1.031531751052e-04       1.933481169751e+01 
       1.171668116135e-04       2.186558802893e+01 
       1.314960185763e-04       2.444229050385e+01 
       1.461872666915e-04       2.707368681883e+01 
       1.612902277501e-04       2.976886954672e+01 
       1.768582608843e-04       3.253738086493e+01 
       1.929489395610e-04       3.538932768908e+01 
       2.096246224918e-04       3.833549339836e+01 
       2.269530705071e-04       4.138744845953e+01 
       2.450081096992e-04       4.455766279532e+01 
       2.638703385590e-04       4.785961931950e+01 
       2.836278731210e-04       5.130792827583e+01 
       3.043771189505e-04       5.491844047327e+01 
       3.262235517688e-04       5.870835525821e+01 
       3.492824791840e-04       6.269631891623e+01 
       3.736797440101e-04       6.690250469792e+01 
       3.995523147497e-04       7.134866588282e+01 
       4.270486910436e-04       7.605814688975e+01 
       4.563290318473e-04       8.105583746261e+01 
       4.875648932553e-04       8.636804888433e+01 
       5.209384440046e-04       9.202229123267e+01 
       5.566410141291e-04       9.804692705287e+01 
       5.948708322125e-04       1.044706794778e+02 
       6.358298269272e-04       1.113219788790e+02 
       6.797194172148e-04       1.186281409396e+02 
       7.267352989175e-04       1.264143863930e+02 
       7.770613550747e-04       1.347027360891e+02 
       8.308629645091e-04       1.435108424437e+02 
       8.882801386995e-04       1.528508409857e+02 
       9.494210483803e-04       1.627283328175e+02 
       1.014356570580e-03       1.731416092076e+02 
       1.083116460410e-03       1.840812221114e+02 
       1.155687614839e-03       1.955299739430e+02 
       1.232014661873e-03       2.074633449718e+02 
       1.312002821567e-03       2.198503266434e+02 
       1.395522706726e-03       2.326534404995e+02 
       1.482416520757e-03       2.458327253812e+02 
       1.572505006192e-03       2.593458984151e+02 
       1.665594506830e-03       2.731488648846e+02 
       1.761483607374e-03       2.871975652714e+02 
       1.859968968452e-03       3.014489802050e+02 
       1.960850141653e-03       3.158618975176e+02 
       2.063933297594e-03       3.303974804914e+02 
       2.169033912537e-03       3.450195774218e+02 
       2.275978531207e-03       3.596949116961e+02 
       2.384605759394e-03       3.743931449030e+02 
       2.494766648282e-03       3.890867945493e+02 
       2.606324622691e-03       4.037511566507e+02 
       2.719155085692e-03       4.183641494505e+02 
       2.833144808513e-03       4.329061571623e+02 
       2.948191191127e-03       4.473598052883e+02 
       3.064201457834e-03       4.617098879128e+02 
       3.181091834265e-03       4.759430110710e+02 
       3.298786737969e-03       4.900475798584e+02 
       3.417218003632e-03       5.040135819154e+02 
       3.536324155751e-03       5.178322190059e+02 
       3.656049735545e-03       5.314961052387e+02 
       3.776344684708e-03       5.449988455309e+02 
       3.897163785761e-03       5.583350571803e+02 
       4.018466156887e-03       5.715001286950e+02 
       4.140214798067e-03       5.844901597599e+02 
       4.262376184676e-03       5.973020940387e+02 
       4.384919904513e-03       6.099332085766e+02 
       4.507818334176e-03       6.223815679204e+02 
       4.631046350859e-03       6.346453024434e+02 
       4.754581075876e-03       6.467233638411e+02 
       4.878401646475e-03       6.586151597472e+02 
       5.002489012830e-03       6.703199418041e+02 
       5.126825757376e-03       6.818374196445e+02 
       5.251395933948e-03       6.931676786925e+02 
       5.376184924470e-03       7.043109408524e+02 
       5.501179311156e-03       7.152678519531e+02 
       5.626366762470e-03       7.260387491259e+02 
       5.751735931236e-03       7.366244842604e+02 
       5.877276363516e-03       7.470259254131e+02 
       6.002978417038e-03       7.572441463860e+02 
       6.128833188064e-03       7.672800693941e+02 
       6.254832445767e-03       7.771351421017e+02 
       6.380968573268e-03       7.868102866277e+02 
       6.507234514587e-03       7.963070490192e+02 
       6.633623726859e-03       8.056267971837e+02 
       6.760130137242e-03       8.147708923710e+02 
       6.886748104005e-03       8.237410257276e+02 
       7.013472381345e-03       8.325385721441e+02 
       7.140298087538e-03       8.411649066318e+02 
       7.267220676083e-03       8.496218986203e+02 
       7.394235909504e-03       8.579108669125e+02 
       7.521339835562e-03       8.660335692183e+02 
       7.648528765610e-03       8.739916414987e+02 
       7.775799254893e-03       8.817869873008e+02 
       7.903148084580e-03       8.894206265864e+02 
       8.030572245374e-03       8.968943629657e+02 
       8.158068922532e-03       9.042097921489e+02 
       8.285635482171e-03       9.113690806898e+02 
       8.413269458728e-03       9.183732940723e+02 
       8.540968543466e-03       9.252241359769e+02 
       8.668730573937e-03       9.319237152523e+02 
       8.796553524298e-03       9.384734906900e+02 
       8.924435496422e-03       9.448744712598e+02 
       9.052374711707e-03       9.511287999378e+02 
       9.180369503552e-03       9.572377513487e+02 
       9.308418310408e-03       9.632034591745e+02 
       9.436519669376e-03       9.690271649758e+02 
       9.564672210306e-03       9.747103827102e+02 
       9.692874650330e-03       9.802548649020e+02 
       9.821125788825e-03       9.856618971244e+02 
       9.949424502743e-03       9.909332425269e+02 
       1.007776974230e-02       9.960698618689e+02 
       1.020616052695e-02       1.001074439553e+03 
       1.033459594173e-02       1.005947314369e+03 
       1.046307513378e-02       1.010690571004e+03 
       1.059159730915e-02       1.015304344361e+03 
       1.072016172989e-02       1.019796101348e+03 
       1.084876771125e-02       1.024160875285e+03 
       1.097741461915e-02       1.028401747385e+03 
       1.110610186783e-02       1.032516640660e+03 
       1.123482891760e-02       1.036511620493e+03 
       1.136359527282e-02       1.040387024067e+03 
       1.149240047999e-02       1.044143227012e+03 
       1.162124412597e-02       1.047783407464e+03 
       1.175012583636e-02       1.051307544050e+03 
       1.187904527390e-02       1.054717651730e+03 
       1.200800213714e-02       1.058014477496e+03 
       1.213699615901e-02       1.061200046564e+03 
       1.226602710567e-02       1.064275342471e+03 
       1.239509477532e-02       1.067241997187e+03 
       1.252419899714e-02       1.070110249232e+03 
       1.265333963033e-02       1.072851705876e+03 
       1.278251656313e-02       1.075497245054e+03 
       1.291172971205e-02       1.078040090282e+03 
       1.304097902102e-02       1.080479828324e+03 
       1.317026446067e-02       1.082818876769e+03 
       1.329958602771e-02       1.085057199096e+03 
       1.342894374422e-02       1.087196939953e+03 
       1.355833765715e-02       1.089238709383e+03 
       1.368776783776e-02       1.091184357002e+03 
       1.381723438115e-02       1.093034130239e+03 
       1.394673740582e-02       1.094790232622e+03 
       1.407627705326e-02       1.096452470413e+03 
       1.420585348759e-02       1.098022662084e+03 
       1.433546689523e-02       1.099502367592e+03 
       1.446511748463e-02       1.100891765404e+03 
       1.459480548595e-02       1.102192151175e+03 
       1.472453115090e-02       1.103405497530e+03 
       1.485429475248e-02       1.104532380002e+03 
       1.498409658484e-02       1.105573418657e+03 
       1.511393696312e-02       1.106531124401e+03 
       1.524381622332e-02       1.107405258080e+03 
       1.537373472222e-02       1.108197841461e+03 
       1.550369283729e-02       1.108908576582e+03 
       1.563369096668e-02       1.109540219477e+03 
       1.576372952911e-02       1.110092092489e+03 
       1.589380896397e-02       1.110566659917e+03 
       1.602392973125e-02       1.110964860443e+03 
       1.615409231161e-02       1.111286107044e+03 
       1.628429720645e-02       1.111533237318e+03 
       1.641454493795e-02       1.111706748995e+03 
       1.654483604919e-02       1.111807099160e+03 
       1.667517110425e-02       1.111836069302e+03 
       1.680555068835e-02       1.111793976260e+03 
       1.693597540797e-02       1.111681667279e+03 
       1.706644589107e-02       1.111501130275e+03 
       1.719696278722e-02       1.111251818053e+03 
       1.732752676783e-02       1.110936192556e+03 
       1.745813852635e-02       1.110554903304e+03 
       1.758879877852e-02       1.110107966578e+03 
       1.771950826263e-02       1.109597797798e+03 
       1.785026773973e-02       1.109023249686e+03 
       1.798107799400e-02       1.108387320958e+03 
       1.811193983298e-02       1.107688846523e+03 
       1.824285408792e-02       1.106930875752e+03 
       1.837382161413e-02       1.106114268089e+03 
       1.850484329127e-02       1.105237029486e+03 
       1.863592002380e-02       1.104302298162e+03 
       1.876705274130e-02       1.103311119970e+03 
       1.889824239889e-02       1.102264220821e+03 
       1.902948997766e-02       1.101161819616e+03 
       1.916079648512e-02       1.100005198598e+03 
       1.929216295559e-02       1.098794662520e+03 
       1.942359045077e-02       1.097532812452e+03 
       1.955508006012e-02       1.096216791123e+03 
       1.968663290148e-02       1.094851114375e+03 
       1.981825012149e-02       1.093434978228e+03 
       1.994993289621e-02       1.091969949697e+03 
       2.008168243169e-02       1.090457018389e+03 
       2.021349996447e-02       1.088895983352e+03 
       2.034538676230e-02       1.087287654983e+03 
       2.047734412467e-02       1.085633311176e+03 
       2.060937338351e-02       1.083933301670e+03 
       2.074147590386e-02       1.082188782261e+03 
       2.087365308451e-02       1.080403293310e+03 
       2.100590635878e-02       1.078571059148e+03 
       2.113823719520e-02       1.076697316752e+03 
       2.127064709831e-02       1.074782562176e+03 
       2.140313760942e-02       1.072827192371e+03 
       2.153571030742e-02       1.070832781429e+03 
       2.166836680964e-02       1.068797220620e+03 
       2.180110877266e-02       1.066722292182e+03 
       2.193393789327e-02       1.064612558223e+03 
       2.206685590930e-02       1.062465678259e+03 
       2.219986460063e-02       1.060281318934e+03 
       2.233296579017e-02       1.058062368855e+03 
       2.246616134478e-02       1.055807984103e+03 
       2.259945317641e-02       1.053518195479e+03 
       2.273284324311e-02       1.051195945462e+03 
       2.286633355014e-02       1.048839279163e+03 
       2.299992615110e-02       1.046451583338e+03 
       2.313362314912e-02       1.044031315151e+03 
       2.326742669807e-02       1.041580976274e+03 
       2.340133900379e-02       1.039101477068e+03 
       2.353536232536e-02       1.036593228219e+03 
       2.366949897648e-02       1.034052793517e+03 
       2.380375132678e-02       1.031484479711e+03 
       2.393812180328e-02       1.028889483927e+03 
       2.407261289180e-02       1.026266596232e+03 
       2.420722713852e-02       1.023617514666e+03 
       2.434196715146e-02       1.020944455193e+03 
       2.447683560216e-02       1.018245247393e+03 
       2.461183522726e-02       1.015519034054e+03 
       2.474696883025e-02       1.012770743694e+03 
       2.488223928324e-02       1.010000522079e+03 
       2.501764952876e-02       1.007203249644e+03 
       2.515320258161e-02       1.004385618391e+03 
       2.528890153088e-02       1.001548081235e+03 
       2.542474954189e-02       9.986902648595e+02 
       2.556074985830e-02       9.958081204805e+02 
       2.569690580423e-02       9.929054805535e+02 
       2.583322078649e-02       9.899864439902e+02 
       2.596969829688e-02       9.870463092378e+02 
       2.610634191455e-02       9.840895393438e+02 
       2.624315530844e-02       9.811124513457e+02 
       2.638014223984e-02       9.781190421253e+02 
       2.651730656499e-02       9.751101213346e+02 
       2.665465223784e-02       9.720851612316e+02 
       2.679218331281e-02       9.690393273010e+02 
       2.692990394772e-02       9.659800907129e+02 
       2.706781840682e-02       9.629082173126e+02 
       2.720593106394e-02       9.598202740508e+02 
       2.734424640564e-02       9.567193345295e+02 
       2.748276903465e-02       9.536033048998e+02 
       2.762150367334e-02       9.504731320766e+02 
       2.776045516726e-02       9.473340761325e+02 
       2.789962848899e-02       9.441786768004e+02 
       2.803902874191e-02       9.410147641665e+02 
       2.817866116432e-02       9.378375395438e+02 
       2.831853113357e-02       9.346503966103e+02 
       2.845864417041e-02       9.314517047526e+02 
       2.859900594353e-02       9.282412904943e+02 
       2.873962227420e-02       9.250246038801e+02 
       2.888049914118e-02       9.217977960561e+02 
       2.902164268576e-02       9.185601439004e+02 
       2.916305921703e-02       9.153147587968e+02 
       2.930475521734e-02       9.120613118312e+02 
       2.944673734804e-02       9.087997815800e+02 
       2.958901245535e-02       9.055314325591e+02 
       2.973158757658e-02       9.022552961047e+02 
       2.987446994652e-02       8.989725869572e+02 
       3.001766700418e-02       8.956830231058e+02 
       3.016118639972e-02       8.923894905870e+02 
       3.030503600178e-02       8.890884326793e+02 
       3.044922390502e-02       8.857814837185e+02 
       3.059375843807e-02       8.824687995629e+02 
       3.073864817176e-02       8.791532591642e+02 
       3.088390192779e-02       8.758325084795e+02 
       3.102952878768e-02       8.725063315397e+02 
       3.117553810225e-02       8.691769279098e+02 
       3.132193950140e-02       8.658459285081e+02 
       3.146874290441e-02       8.625085300170e+02 
       3.161595853073e-02       8.591713645062e+02 
       3.176359691120e-02       8.558272103065e+02 
       3.191166889985e-02       8.524823564351e+02 
       3.206018568627e-02       8.491340851833e+02 
       3.220915880849e-02       8.457860123097e+02 
       3.235860016661e-02       8.424361867887e+02 
       3.250852203697e-02       8.390817297506e+02 
       3.265893708706e-02       8.357267466924e+02 
       3.280985839123e-02       8.323713562992e+02 
       3.296129944711e-02       8.290167568532e+02 
       3.311327419288e-02       8.256585738423e+02 
       3.326579702544e-02       8.222996730258e+02 
       3.341888281952e-02       8.189396092694e+02 
       3.357254694779e-02       8.155820343423e+02 
       3.372680530199e-02       8.122230363240e+02 
       3.388167431526e-02       8.088660465237e+02 
       3.403717098562e-02       8.055038151967e+02 
       3.419331290073e-02       8.021467019196e+02 
       3.435011826405e-02       7.987897897994e+02 
       3.450760592243e-02       7.954318402168e+02 
       3.466579539525e-02       7.920738366612e+02 
       3.482470690522e-02       7.887186157118e+02 
       3.498436141102e-02       7.853657386818e+02 
       3.514478064168e-02       7.820119186878e+02 
       3.530598713320e-02       7.786583662594e+02 
       3.546800426716e-02       7.753079943502e+02 
       3.563085631176e-02       7.719596613537e+02 
       3.579456846537e-02       7.686104677602e+02 
       3.595916690270e-02       7.652623578721e+02 
       3.612467882395e-02       7.619168343307e+02 
       3.629113250695e-02       7.585734717268e+02 
       3.645855736277e-02       7.552307500961e+02 
       3.662698399483e-02       7.518893533161e+02 
       3.679644426196e-02       7.485515452507e+02 
       3.696697134564e-02       7.452174438114e+02 
       3.713859982174e-02       7.418790502205e+02 
       3.731136573720e-02       7.385460911980e+02 
       3.748530669201e-02       7.352134029234e+02 
       3.766046192691e-02       7.318835466504e+02 
       3.783687241735e-02       7.285545252063e+02 
       3.801458097423e-02       7.252281597872e+02 
       3.819363235199e-02       7.218984011015e+02 
       3.837407336470e-02       7.185761177781e+02 
       3.855595301090e-02       7.152549356479e+02 
       3.873932260798e-02       7.119308830614e+02 
       3.892423593692e-02       7.086105217731e+02 
       3.911074939843e-02       7.052905413732e+02 
       3.929892218156e-02       7.019723814968e+02 
       3.948881644593e-02       6.986530575735e+02 
       3.968049751901e-02       6.953349567095e+02 
       3.987403410981e-02       6.920164440170e+02 
       4.006949854080e-02       6.887003833476e+02 
       4.026696699980e-02       6.853834926478e+02 
       4.046651981397e-02       6.820652066295e+02 
       4.066824174824e-02       6.787466519647e+02 
       4.087222233088e-02       6.754271807555e+02 
       4.107855620902e-02       6.721080501056e+02 
       4.128734353767e-02       6.687870253743e+02 
       4.149869040587e-02       6.654635075960e+02 
       4.171270930433e-02       6.621394829296e+02 
       4.192951963951e-02       6.588121140962e+02 
       4.214924829956e-02       6.554837447254e+02 
       4.237203027853e-02       6.521467028511e+02 
       4.259800936617e-02       6.488116991973e+02 
       4.282733891146e-02       6.454701554613e+02 
       4.306018266955e-02       6.421246924617e+02 
       4.329671574311e-02       6.387756796562e+02 
       4.353712563067e-02       6.354172224322e+02 
       4.378161339674e-02       6.320546685361e+02 
       4.403039498090e-02       6.286862161302e+02 
       4.428370266542e-02       6.253059532329e+02 
       4.454178672511e-02       6.219203740443e+02 
       4.480491728619e-02       6.185236088648e+02 
       4.507338642648e-02       6.151182717432e+02 
       4.534751055460e-02       6.116985265747e+02 
       4.562763311281e-02       6.082688081686e+02 
       4.591412765656e-02       6.048258650194e+02 
       4.620740137416e-02       6.013658472806e+02 
       4.650789912206e-02       5.978936650828e+02 
       4.681610806681e-02       5.944014539084e+02 
       4.713256304325e-02       5.908920088021e+02 
       4.745785276177e-02       5.873594840269e+02 
       4.779262702589e-02       5.838043273736e+02 
       4.813760515749e-02       5.802253984875e+02 
       4.849358587116e-02       5.766170058078e+02 
       4.886145889551e-02       5.729817171836e+02 
       4.924221870971e-02       5.693131666964e+02 
       4.963698085278e-02       5.656072668918e+02 
       5.004700137647e-02       5.618624400963e+02 
       5.047370015656e-02       5.580747799237e+02 
       5.091868896123e-02       5.542388199393e+02 
       5.138380540906e-02       5.503489728497e+02 
       5.187115424708e-02       5.463977624504e+02 
       5.238315775705e-02       5.423806473118e+02 
       5.292261757128e-02       5.382855176564e+02 
       5.349279076425e-02       5.341040626163e+02 
       5.409748378617e-02       5.298221544495e+02 
       5.474116859746e-02       5.254276561800e+02 
       5.542912616527e-02       5.208994082560e+02 
       5.616762307707e-02       5.162136914010e+02 
       5.696412692793e-02       5.113388099108e+02 
       5.782756434085e-02       5.062385124156e+02 
       5.876861999985e-02       5.008603895899e+02 
       5.980006221617e-02       4.951375555994e+02 
       6.093705389683e-02       4.889809575075e+02 
       6.219735751136e-02       4.822698526849e+02 
