# dimensionless total [l(l+1)/2pi] C_l's
# for l=2 to 2500, i.e. number of multipoles equal to 2499
#
# -> if you prefer output in CAMB/HealPix/LensPix units/order, set 'format' to 'camb' in input file
# -> if you don't want to see such a header, set 'headers' to 'no' in input file
# -> for CMB lensing (phi), these are C_l^phi-phi for the lensing potential.
#    Remember the conversion factors:
#    C_l^dd (deflection) = l(l+1) C_l^phi-phi
#    C_l^gg (shear/convergence) = 1/4 (l(l+1))^2 C_l^phi-phi
#
# 1:l     2:TT                     3:EE                     4:TE                     5:BB                     6:phiphi                 7:TPhi                   8:Ephi               
    2       1.374518839353e-10       4.170071409370e-15       3.528615796372e-13       0.000000000000e+00       8.299829702141e-09       4.512278814184e-10      -1.839810432182e-12 
    3       1.300984715652e-10       5.351526456937e-15       3.959432668384e-13       0.000000000000e+00       5.102132961936e-09       3.194542880210e-10      -1.395616406451e-12 
    4       1.231426717787e-10       4.635467392610e-15       3.701278033311e-13       0.000000000000e+00       3.533672528662e-09       2.415898053410e-10      -9.146576674335e-13 
    5       1.179268362741e-10       3.096988695343e-15       3.151848847740e-13       0.000000000000e+00       2.629263692229e-09       1.905978868279e-10      -5.094481876641e-13 
    6       1.143409316848e-10       1.733447505249e-15       2.538638395945e-13       0.000000000000e+00       2.048445291619e-09       1.549147125720e-10      -2.105152533838e-13 
    7       1.120508466615e-10       9.361670211473e-16       1.993416385358e-13       0.000000000000e+00       1.648784496969e-09       1.288310027387e-10      -1.948632121702e-14 
    8       1.107068767235e-10       6.027822766667e-16       1.573921073844e-13       0.000000000000e+00       1.360029935614e-09       1.090902461683e-10       7.836583388594e-14 
    9       1.100742952974e-10       4.833343247446e-16       1.292721957766e-13       0.000000000000e+00       1.143461522868e-09       9.369937346034e-11       1.061615360098e-13 
   10       1.099632493334e-10       4.118590547566e-16       1.136485474668e-13       0.000000000000e+00       9.761259072085e-10       8.145048367234e-11       8.959510511140e-14 
   11       1.102594252601e-10       3.457199661553e-16       1.079070596737e-13       0.000000000000e+00       8.354664189616e-10       7.230718482764e-11       5.262820567249e-14 
   12       1.109025935486e-10       3.003462747098e-16       1.090347778777e-13       0.000000000000e+00       7.301492883490e-10       6.406135320308e-11       1.298400736841e-14 
   13       1.117773556920e-10       2.871622893463e-16       1.142822806287e-13       0.000000000000e+00       6.436728603769e-10       5.724305539790e-11      -1.753459668948e-14 
   14       1.128050955010e-10       2.984705951049e-16       1.216406115182e-13       0.000000000000e+00       5.717115910905e-10       5.127999480103e-11      -3.435385910334e-14 
   15       1.140106044526e-10       3.223876889774e-16       1.298409059718e-13       0.000000000000e+00       5.111323802829e-10       4.625801027097e-11      -3.762921082184e-14 
   16       1.153996930317e-10       3.562146485229e-16       1.381719913166e-13       0.000000000000e+00       4.596170294264e-10       4.199960734870e-11      -3.123410434622e-14 
   17       1.168482716431e-10       4.053036703650e-16       1.464985602598e-13       0.000000000000e+00       4.154179027175e-10       3.832324851151e-11      -2.031646479461e-14 
   18       1.183977013484e-10       4.751260597390e-16       1.550008550467e-13       0.000000000000e+00       3.770536217802e-10       3.502762386463e-11      -9.852561235510e-15 
   19       1.200631921625e-10       5.661763158292e-16       1.638765958189e-13       0.000000000000e+00       3.439051653723e-10       3.210686815989e-11      -2.448248582334e-15 
   20       1.217784938534e-10       6.766284643156e-16       1.732851839676e-13       0.000000000000e+00       3.147089124953e-10       2.955429589875e-11       2.155867644126e-16 
   21       1.235574478333e-10       8.057426870879e-16       1.832113021535e-13       0.000000000000e+00       2.890056921149e-10       2.733123401273e-11      -1.315399966134e-15 
   22       1.254068026872e-10       9.528522195568e-16       1.935019750007e-13       0.000000000000e+00       2.661767571728e-10       2.534839757607e-11      -5.342061038864e-15 
   23       1.273168251552e-10       1.118209884849e-15       2.038218079707e-13       0.000000000000e+00       2.459166041203e-10       2.356212830033e-11      -1.017923944407e-14 
   24       1.292540709843e-10       1.302177182536e-15       2.137304132489e-13       0.000000000000e+00       2.277627623665e-10       2.192498187762e-11      -1.402815314056e-14 
   25       1.312292314599e-10       1.504883366788e-15       2.229172089670e-13       0.000000000000e+00       2.114690424205e-10       2.043588572582e-11      -1.606180134727e-14 
   26       1.332525567196e-10       1.726540042893e-15       2.311227244315e-13       0.000000000000e+00       1.967166227494e-10       1.909457891256e-11      -1.590225296587e-14 
   27       1.353318585693e-10       1.968735515913e-15       2.382730889166e-13       0.000000000000e+00       1.834290570751e-10       1.789434406807e-11      -1.400645782511e-14 
   28       1.374560680615e-10       2.233722006308e-15       2.443746981450e-13       0.000000000000e+00       1.714453590597e-10       1.680981355782e-11      -1.130932145396e-14 
   29       1.396001789754e-10       2.523794535141e-15       2.494667355910e-13       0.000000000000e+00       1.604745835315e-10       1.580421845639e-11      -8.868648194552e-15 
   30       1.417714463543e-10       2.840123746090e-15       2.536072895876e-13       0.000000000000e+00       1.504562602989e-10       1.487655574273e-11      -7.107858353991e-15 
   31       1.439779426544e-10       3.183454407901e-15       2.568866725205e-13       0.000000000000e+00       1.413160238183e-10       1.403083358097e-11      -6.286135320137e-15 
   32       1.462185350224e-10       3.554472993667e-15       2.593848859504e-13       0.000000000000e+00       1.329092670726e-10       1.326369646455e-11      -6.570937270685e-15 
   33       1.484950094884e-10       3.954102609459e-15       2.610004536462e-13       0.000000000000e+00       1.251902160989e-10       1.256648104196e-11      -7.612908890429e-15 
   34       1.508020479576e-10       4.383305578750e-15       2.615565055267e-13       0.000000000000e+00       1.180905328288e-10       1.192242646728e-11      -8.799736769952e-15 
   35       1.531286010639e-10       4.842994232455e-15       2.608708825760e-13       0.000000000000e+00       1.115045714003e-10       1.131175093657e-11      -9.513453791896e-15 
   36       1.554780028366e-10       5.334001733154e-15       2.588537510118e-13       0.000000000000e+00       1.054152549952e-10       1.073403073897e-11      -9.680075360360e-15 
   37       1.578532580024e-10       5.857093472459e-15       2.554422689152e-13       0.000000000000e+00       9.980351613711e-11       1.019279436914e-11      -9.406181634441e-15 
   38       1.602507776570e-10       6.412968626213e-15       2.505747804226e-13       0.000000000000e+00       9.461023983128e-11       9.689282451786e-12      -8.836986990625e-15 
   39       1.626640253434e-10       7.002276942427e-15       2.442036379144e-13       0.000000000000e+00       8.975758808100e-11       9.222754365955e-12      -8.138151867349e-15 
   40       1.650977356627e-10       7.625687754696e-15       2.363388346346e-13       0.000000000000e+00       8.523070758274e-11       8.792129352998e-12      -7.426795586217e-15 
   41       1.675573155546e-10       8.283836404655e-15       2.270193147393e-13       0.000000000000e+00       8.101769754439e-11       8.394495137021e-12      -6.821751774295e-15 
   42       1.700444878715e-10       8.977301499696e-15       2.163024746098e-13       0.000000000000e+00       7.708522927407e-11       8.024404458580e-12      -6.463830746033e-15 
   43       1.725586697383e-10       9.706641395089e-15       2.042395060350e-13       0.000000000000e+00       7.339087418867e-11       7.675571812822e-12      -6.472811835062e-15 
   44       1.751025764046e-10       1.047252483734e-14       1.907898257855e-13       0.000000000000e+00       6.992894704191e-11       7.347079993605e-12      -6.799412593373e-15 
   45       1.776776850454e-10       1.127563564578e-14       1.758816815602e-13       0.000000000000e+00       6.669592158691e-11       7.038764309089e-12      -7.329285427746e-15 
   46       1.802823234887e-10       1.211663588819e-14       1.594349176610e-13       0.000000000000e+00       6.367666629932e-11       6.749398343459e-12      -7.921772593184e-15 
   47       1.829113802215e-10       1.299616518525e-14       1.413603687355e-13       0.000000000000e+00       6.084353954969e-11       6.476610085391e-12      -8.408364877436e-15 
   48       1.855587590046e-10       1.391476124126e-14       1.215745321302e-13       0.000000000000e+00       5.816489935156e-11       6.217641960899e-12      -8.639280864923e-15 
   49       1.882262375737e-10       1.487259656988e-14       1.000498903381e-13       0.000000000000e+00       5.563558045296e-11       5.972079976409e-12      -8.642327552593e-15 
   50       1.909166078553e-10       1.586966635942e-14       7.677773221423e-14       0.000000000000e+00       5.325345376837e-11       5.739749786985e-12      -8.506172443451e-15 
   51       1.936310031116e-10       1.690585616834e-14       5.175428186923e-14       0.000000000000e+00       5.101034784196e-11       5.519900149308e-12      -8.337024074990e-15 
   52       1.963687479771e-10       1.798093721048e-14       2.498087193260e-14       0.000000000000e+00       4.889162435547e-11       5.311162106487e-12      -8.259545835319e-15 
   53       1.991285652345e-10       1.909467789762e-14      -3.541185274642e-15       0.000000000000e+00       4.688077479840e-11       5.112020758910e-12      -8.384419274549e-15 
   54       2.019129056487e-10       2.024722299280e-14      -3.382793137991e-14       0.000000000000e+00       4.497557528551e-11       4.922466950142e-12      -8.699138329810e-15 
   55       2.047244701545e-10       2.143880373654e-14      -6.589958356762e-14       0.000000000000e+00       4.317534600605e-11       4.742699165212e-12      -9.150726266206e-15 
   56       2.075648595931e-10       2.266963027991e-14      -9.977567057730e-14       0.000000000000e+00       4.147608452929e-11       4.572629232599e-12      -9.676154551633e-15 
   57       2.104344816351e-10       2.393989184433e-14      -1.354750817502e-13       0.000000000000e+00       3.987025184326e-11       4.411863001112e-12      -1.020185832890e-14 
   58       2.133324577043e-10       2.524975688145e-14      -1.730161160758e-13       0.000000000000e+00       3.834655839348e-11       4.259681016785e-12      -1.064325188784e-14 
   59       2.162574335096e-10       2.659926118029e-14      -2.124107941028e-13       0.000000000000e+00       3.689307152377e-11       4.115239039529e-12      -1.092535007742e-14 
   60       2.192104418403e-10       2.798794148186e-14      -2.536461397445e-13       0.000000000000e+00       3.550786644015e-11       3.978267856884e-12      -1.105132524272e-14 
   61       2.221925412791e-10       2.941511691024e-14      -2.966986305091e-13       0.000000000000e+00       3.419047496765e-11       3.848502125833e-12      -1.104904321026e-14 
   62       2.252039098779e-10       3.087998997979e-14      -3.415394099680e-13       0.000000000000e+00       3.293868232725e-11       3.725463193898e-12      -1.095158341413e-14 
   63       2.282437827119e-10       3.238164295662e-14      -3.881341423235e-13       0.000000000000e+00       3.174842576455e-11       3.608447228224e-12      -1.079746982366e-14 
   64       2.313103894339e-10       3.391903422001e-14      -4.364428669760e-13       0.000000000000e+00       3.061369317846e-11       3.496513344660e-12      -1.063090187119e-14 
   65       2.344019218221e-10       3.549111365107e-14      -4.864285388815e-13       0.000000000000e+00       2.952818194653e-11       3.388733479050e-12      -1.049176818579e-14 
   66       2.375198148531e-10       3.709720537490e-14      -5.380850785291e-13       0.000000000000e+00       2.849091142320e-11       3.285030171772e-12      -1.038271093774e-14 
   67       2.406660509290e-10       3.873669981186e-14      -5.914150200418e-13       0.000000000000e+00       2.750162137303e-11       3.185495515362e-12      -1.029547848714e-14 
   68       2.438421581925e-10       4.040894149945e-14      -6.464214452748e-13       0.000000000000e+00       2.655906549685e-11       3.090140603985e-12      -1.022047324926e-14 
   69       2.470491768924e-10       4.211322878324e-14      -7.031080813420e-13       0.000000000000e+00       2.566095929674e-11       2.998890983987e-12      -1.014669682662e-14 
   70       2.502876257487e-10       4.384881350769e-14      -7.614793981430e-13       0.000000000000e+00       2.480392794093e-11       2.911582104434e-12      -1.006169514106e-14 
   71       2.535574683182e-10       4.561490070705e-14      -8.215407058893e-13       0.000000000000e+00       2.398345412872e-11       2.827954767657e-12      -9.951503565840e-15 
   72       2.568584923024e-10       4.741060972462e-14      -8.832907554546e-13       0.000000000000e+00       2.319504003382e-11       2.747728333718e-12      -9.804478308179e-15 
   73       2.601916065089e-10       4.923484961725e-14      -9.466976783334e-13       0.000000000000e+00       2.243806719969e-11       2.670846711384e-12      -9.623763904128e-15 
   74       2.635577332178e-10       5.108641916479e-14      -1.011718583102e-12       0.000000000000e+00       2.171258678430e-11       2.597271583368e-12      -9.417130845962e-15 
   75       2.669573935015e-10       5.296404215303e-14      -1.078306571002e-12       0.000000000000e+00       2.101814712814e-11       2.526906109059e-12      -9.193334657376e-15 
   76       2.703906830177e-10       5.486636618399e-14      -1.146410662297e-12       0.000000000000e+00       2.035376933789e-11       2.459592150266e-12      -8.962149752733e-15 
   77       2.738572478026e-10       5.679196148616e-14      -1.215975722633e-12       0.000000000000e+00       1.971792287002e-11       2.395107496968e-12      -8.734403296319e-15 
   78       2.773562600645e-10       5.873931972472e-14      -1.286942389394e-12       0.000000000000e+00       1.910850111439e-11       2.333163093060e-12      -8.522009061599e-15 
   79       2.808863939763e-10       6.070685281180e-14      -1.359246998063e-12       0.000000000000e+00       1.852279697789e-11       2.273400262102e-12      -8.338001290467e-15 
   80       2.844463672604e-10       6.269294535133e-14      -1.432827184414e-12       0.000000000000e+00       1.795817526596e-11       2.215479696035e-12      -8.193466879654e-15 
   81       2.880367275124e-10       6.469612508012e-14      -1.507639973552e-12       0.000000000000e+00       1.741427801957e-11       2.159372322456e-12      -8.087653886881e-15 
   82       2.916583333631e-10       6.671491999325e-14      -1.583646712600e-12       0.000000000000e+00       1.689115939098e-11       2.105114123164e-12      -8.016198975871e-15 
   83       2.953118027245e-10       6.874780714504e-14      -1.660807704864e-12       0.000000000000e+00       1.638861152782e-11       2.052717799439e-12      -7.974053298347e-15 
   84       2.989974990605e-10       7.079321245248e-14      -1.739082241300e-12       0.000000000000e+00       1.590615306037e-11       2.002171697097e-12      -7.955458914892e-15 
   85       3.027155176570e-10       7.284951049872e-14      -1.818428631982e-12       0.000000000000e+00       1.544301758880e-11       1.953438731560e-12      -7.953925215823e-15 
   86       3.064656718938e-10       7.491502433656e-14      -1.898804237563e-12       0.000000000000e+00       1.499814217049e-11       1.906455312908e-12      -7.962205342055e-15 
   87       3.102474795145e-10       7.698802529192e-14      -1.980165500746e-12       0.000000000000e+00       1.457015580732e-11       1.861130270947e-12      -7.972272605967e-15 
   88       3.140601488978e-10       7.906673276729e-14      -2.062467977751e-12       0.000000000000e+00       1.415736793289e-11       1.817343780271e-12      -7.975296912274e-15 
   89       3.179029005936e-10       8.114933822383e-14      -2.145664656572e-12       0.000000000000e+00       1.375817103707e-11       1.774977840533e-12      -7.963526021719e-15 
   90       3.217760196642e-10       8.323408186730e-14      -2.229700540847e-12       0.000000000000e+00       1.337234601654e-11       1.734015540006e-12      -7.936318944091e-15 
   91       3.256799438945e-10       8.531918768552e-14      -2.314517270399e-12       0.000000000000e+00       1.299994133268e-11       1.694455455210e-12      -7.895019948633e-15 
   92       3.296149346366e-10       8.740284050407e-14      -2.400054764522e-12       0.000000000000e+00       1.264087186870e-11       1.656280888073e-12      -7.841142863114e-15 
   93       3.335810681037e-10       8.948318615196e-14      -2.486251227783e-12       0.000000000000e+00       1.229491362117e-11       1.619459263731e-12      -7.776376031670e-15 
   94       3.375782266634e-10       9.155833162737e-14      -2.573043155823e-12       0.000000000000e+00       1.196169839165e-11       1.583941528325e-12      -7.702587272640e-15 
   95       3.416060901311e-10       9.362634526330e-14      -2.660365341154e-12       0.000000000000e+00       1.164070847823e-11       1.549661546801e-12      -7.621828836408e-15 
   96       3.456641270636e-10       9.568525689333e-14      -2.748150878966e-12       0.000000000000e+00       1.133127136713e-11       1.516535500708e-12      -7.536342363239e-15 
   97       3.497515860527e-10       9.773305801726e-14      -2.836331172917e-12       0.000000000000e+00       1.103255442428e-11       1.484461286002e-12      -7.448563841116e-15 
   98       3.538674870186e-10       9.976770196688e-14      -2.924835940945e-12       0.000000000000e+00       1.074355958693e-11       1.453317910835e-12      -7.361128563586e-15 
   99       3.580108670429e-10       1.017871512100e-13      -3.013594516216e-12       0.000000000000e+00       1.046335211876e-11       1.422993656548e-12      -7.276357356956e-15 
  100       3.621815764182e-10       1.037895265499e-13      -3.102539947717e-12       0.000000000000e+00       1.019179532077e-11       1.393476413612e-12      -7.194621510989e-15 
  101       3.663795797027e-10       1.057729794647e-13      -3.191605493959e-12       0.000000000000e+00       9.928910508538e-12       1.364775081808e-12      -7.115754387502e-15 
  102       3.706047056896e-10       1.077356475822e-13      -3.280723400860e-12       0.000000000000e+00       9.674649792662e-12       1.336891698203e-12      -7.039548176763e-15 
  103       3.748566417858e-10       1.096756554171e-13      -3.369824923246e-12       0.000000000000e+00       9.428893607428e-12       1.309821183596e-12      -6.965752567684e-15 
  104       3.791349283909e-10       1.115911151079e-13      -3.458840346350e-12       0.000000000000e+00       9.191448239552e-12       1.283551088957e-12      -6.894073418018e-15 
  105       3.834389532761e-10       1.134801271538e-13      -3.547699007311e-12       0.000000000000e+00       8.962043356889e-12       1.258061341876e-12      -6.824171424552e-15 
  106       3.877679459626e-10       1.153407811522e-13      -3.636329316672e-12       0.000000000000e+00       8.740329537152e-12       1.233323993003e-12      -6.755660793304e-15 
  107       3.921209721010e-10       1.171711565354e-13      -3.724658779883e-12       0.000000000000e+00       8.525875796628e-12       1.209302962493e-12      -6.688107909713e-15 
