# Matter power spectrum P(k) at redshift z=1
# for k=1.04684e-05 to 1.49786 h/Mpc,
# number of wavenumbers equal to 525
#    1:k (h/Mpc)              2:P (Mpc/h)^3        
       1.046838254073e-05       1.758122639904e+01 
       2.339239294690e-05       3.822828736852e+01 
       3.636211258110e-05       5.853934019688e+01 
       4.941267169675e-05       7.872350347437e+01 
       6.257978506766e-05       9.890146606263e+01 
       7.590007257106e-05       1.191647235005e+02 
       8.941139008165e-05       1.395922125243e+02 
       1.031531751052e-04       1.602571526590e+02 
       1.171668116135e-04       1.812305661167e+02 
       1.314960185763e-04       2.025834299672e+02 
       1.461872666915e-04       2.243881892158e+02 
       1.612902277501e-04       2.467199442464e+02 
       1.768582608843e-04       2.696574777472e+02 
       1.929489395610e-04       2.932841995546e+02 
       2.096246224918e-04       3.176890607586e+02 
       2.269530705071e-04       3.429674601075e+02 
       2.450081096992e-04       3.692221576614e+02 
       2.638703385590e-04       3.965641982375e+02 
       2.836278731210e-04       4.251138381436e+02 
       3.043771189505e-04       4.550014570426e+02 
       3.262235517688e-04       4.863684255660e+02 
       3.492824791840e-04       5.193678862713e+02 
       3.736797440101e-04       5.541653824069e+02 
       3.995523147497e-04       5.909392546345e+02 
       4.270486910436e-04       6.298806952404e+02 
       4.563290318473e-04       6.711933265450e+02 
       4.875648932553e-04       7.150921454906e+02 
       5.209384440046e-04       7.618016576992e+02 
       5.566410141291e-04       8.115530103091e+02 
       5.948708322125e-04       8.645799602252e+02 
       6.358298269272e-04       9.211135466296e+02 
       6.797194172148e-04       9.813754370862e+02 
       7.267352989175e-04       1.045570036900e+03 
       7.770613550747e-04       1.113875650910e+03 
       8.308629645091e-04       1.186435180056e+03 
       8.882801386995e-04       1.263347035013e+03 
       9.494210483803e-04       1.344657104259e+03 
       1.014356570580e-03       1.430352650869e+03 
       1.083116460410e-03       1.520358891876e+03 
       1.155687614839e-03       1.614538798884e+03 
       1.232014661873e-03       1.712696256754e+03 
       1.312002821567e-03       1.814582346141e+03 
       1.395522706726e-03       1.919894764304e+03 
       1.482416520757e-03       2.028310017110e+03 
       1.572505006192e-03       2.139484173215e+03 
       1.665594506830e-03       2.253056777314e+03 
       1.761483607374e-03       2.368666080201e+03 
       1.859968968452e-03       2.485957561184e+03 
       1.960850141653e-03       2.604590629775e+03 
       2.063933297594e-03       2.724243720789e+03 
       2.169033912537e-03       2.844617202041e+03 
       2.275978531207e-03       2.965435231408e+03 
       2.384605759394e-03       3.086446455375e+03 
       2.494766648282e-03       3.207423451660e+03 
       2.606324622691e-03       3.328162153505e+03 
       2.719155085692e-03       3.448480528028e+03 
       2.833144808513e-03       3.568217217552e+03 
       2.948191191127e-03       3.687229507544e+03 
       3.064201457834e-03       3.805392554424e+03 
       3.181091834265e-03       3.922596283209e+03 
       3.298786737969e-03       4.038745178695e+03 
       3.417218003632e-03       4.153756491268e+03 
       3.536324155751e-03       4.267557267228e+03 
       3.656049735545e-03       4.380086087337e+03 
       3.776344684708e-03       4.491289709520e+03 
       3.897163785761e-03       4.601123328297e+03 
       4.018466156887e-03       4.709548634844e+03 
       4.140214798067e-03       4.816533347788e+03 
       4.262376184676e-03       4.922052173410e+03 
       4.384919904513e-03       5.026082662077e+03 
       4.507818334176e-03       5.128609019950e+03 
       4.631046350859e-03       5.229615959114e+03 
       4.754581075876e-03       5.329094764970e+03 
       4.878401646475e-03       5.427040597362e+03 
       5.002489012830e-03       5.523447252299e+03 
       5.126825757376e-03       5.618312197466e+03 
       5.251395933948e-03       5.711635917479e+03 
       5.376184924470e-03       5.803420051420e+03 
       5.501179311156e-03       5.893669728207e+03 
       5.626366762470e-03       5.982387673836e+03 
       5.751735931236e-03       6.069580835723e+03 
       5.877276363516e-03       6.155256642432e+03 
       6.002978417038e-03       6.239424890456e+03 
       6.128833188064e-03       6.322072418701e+03 
       6.254832445767e-03       6.403389066599e+03 
       6.380968573268e-03       6.483185444892e+03 
       6.507234514587e-03       6.561383001347e+03 
       6.633623726859e-03       6.638126092057e+03 
       6.760130137242e-03       6.713433180514e+03 
       6.886748104005e-03       6.787314503355e+03 
       7.013472381345e-03       6.859775462105e+03 
       7.140298087538e-03       6.930825876067e+03 
       7.267220676083e-03       7.000478249613e+03 
       7.394235909504e-03       7.068746638497e+03 
       7.521339835562e-03       7.135648973518e+03 
       7.648528765610e-03       7.201203429199e+03 
       7.775799254893e-03       7.265411180929e+03 
       7.903148084580e-03       7.328284575670e+03 
       8.030572245374e-03       7.389832310210e+03 
       8.158068922532e-03       7.450079958318e+03 
       8.285635482171e-03       7.509043667377e+03 
       8.413269458728e-03       7.566732619112e+03 
       8.540968543466e-03       7.623159835333e+03 
       8.668730573937e-03       7.678342422913e+03 
       8.796553524298e-03       7.732291240575e+03 
       8.924435496422e-03       7.785016569816e+03 
       9.052374711707e-03       7.836534354962e+03 
       9.180369503552e-03       7.886851609444e+03 
       9.308418310408e-03       7.935990702198e+03 
       9.436519669376e-03       7.983959816206e+03 
       9.564672210306e-03       8.030771541325e+03 
       9.692874650330e-03       8.076442545781e+03 
       9.821125788825e-03       8.120982542317e+03 
       9.949424502743e-03       8.164402851812e+03 
       1.007776974230e-02       8.206712831654e+03 
       1.020616052695e-02       8.247935880145e+03 
       1.033459594173e-02       8.288048415542e+03 
       1.046307513378e-02       8.327145818115e+03 
       1.059159730915e-02       8.365159634219e+03 
       1.072016172989e-02       8.402132731077e+03 
       1.084876771125e-02       8.438065562859e+03 
       1.097741461915e-02       8.472978893733e+03 
       1.110610186783e-02       8.506883871697e+03 
       1.123482891760e-02       8.539794402231e+03 
       1.136359527282e-02       8.571710413674e+03 
       1.149240047999e-02       8.602660764438e+03 
       1.162124412597e-02       8.632644075982e+03 
       1.175012583636e-02       8.661673728080e+03 
       1.187904527390e-02       8.689766671662e+03 
       1.200800213714e-02       8.716921477335e+03 
       1.213699615901e-02       8.743165256887e+03 
       1.226602710567e-02       8.768487719020e+03 
       1.239509477532e-02       8.792920412945e+03 
       1.252419899714e-02       8.816471706111e+03 
       1.265333963033e-02       8.839129840436e+03 
       1.278251656313e-02       8.860929255556e+03 
       1.291172971205e-02       8.881881736869e+03 
       1.304097902102e-02       8.901973962137e+03 
       1.317026446067e-02       8.921237900369e+03 
       1.329958602771e-02       8.939682680587e+03 
       1.342894374422e-02       8.957304171272e+03 
       1.355833765715e-02       8.974115692723e+03 
       1.368776783776e-02       8.990135065698e+03 
       1.381723438115e-02       9.005361181905e+03 
       1.394673740582e-02       9.019828388523e+03 
       1.407627705326e-02       9.033518054986e+03 
       1.420585348759e-02       9.046450443735e+03 
       1.433546689523e-02       9.058636412970e+03 
       1.446511748463e-02       9.070072004061e+03 
       1.459480548595e-02       9.080775937744e+03 
       1.472453115090e-02       9.090776511336e+03 
       1.485429475248e-02       9.100055080914e+03 
       1.498409658484e-02       9.108635060234e+03 
       1.511393696312e-02       9.116515695542e+03 
       1.524381622332e-02       9.123722407010e+03 
       1.537373472222e-02       9.130248935956e+03 
       1.550369283729e-02       9.136102145805e+03 
       1.563369096668e-02       9.141310777000e+03 
       1.576372952911e-02       9.145856276525e+03 
       1.589380896397e-02       9.149756484703e+03 
       1.602392973125e-02       9.153038409515e+03 
       1.615409231161e-02       9.155687758778e+03 
       1.628429720645e-02       9.157716453264e+03 
       1.641454493795e-02       9.159150548142e+03 
       1.654483604919e-02       9.159972247769e+03 
       1.667517110425e-02       9.160213123938e+03 
       1.680555068835e-02       9.159826425711e+03 
       1.693597540797e-02       9.158931312204e+03 
       1.706644589107e-02       9.157415041010e+03 
       1.719696278722e-02       9.155383795311e+03 
       1.732752676783e-02       9.152756827520e+03 
       1.745813852635e-02       9.149642610724e+03 
       1.758879877852e-02       9.145961358122e+03 
       1.771950826263e-02       9.141756470556e+03 
       1.785026773973e-02       9.137021897885e+03 
       1.798107799400e-02       9.131780934442e+03 
       1.811193983298e-02       9.126029876870e+03 
       1.824285408792e-02       9.119744221698e+03 
       1.837382161413e-02       9.113008061997e+03 
       1.850484329127e-02       9.105826189860e+03 
       1.863592002380e-02       9.098122999569e+03 
       1.876705274130e-02       9.089624624143e+03 
       1.889824239889e-02       9.081322880742e+03 
       1.902948997766e-02       9.072245510967e+03 
       1.916079648512e-02       9.062669031880e+03 
       1.929216295559e-02       9.052427266222e+03 
       1.942359045077e-02       9.042309629307e+03 
       1.955508006012e-02       9.031501362467e+03 
       1.968663290148e-02       9.019934453212e+03 
       1.981825012149e-02       9.008573275333e+03 
       1.994993289621e-02       8.996466735155e+03 
       2.008168243169e-02       8.984032683298e+03 
       2.021349996447e-02       8.971144796322e+03 
       2.034538676230e-02       8.957925222493e+03 
       2.047734412467e-02       8.944299668757e+03 
       2.060937338351e-02       8.930242623142e+03 
       2.074147590386e-02       8.915915309720e+03 
       2.087365308451e-02       8.901169132650e+03 
       2.100590635878e-02       8.886108027831e+03 
       2.113823719520e-02       8.870669891402e+03 
       2.127064709831e-02       8.854851452224e+03 
       2.140313760942e-02       8.838741663191e+03 
       2.153571030742e-02       8.822347394879e+03 
       2.166836680964e-02       8.805543503713e+03 
       2.180110877266e-02       8.788453572778e+03 
       2.193393789327e-02       8.771069737730e+03 
       2.206685590930e-02       8.753379815269e+03 
       2.219986460063e-02       8.735382502844e+03 
       2.233296579017e-02       8.717083894396e+03 
       2.246616134478e-02       8.698519652029e+03 
       2.259945317641e-02       8.679649464427e+03 
       2.273284324311e-02       8.660560294293e+03 
       2.286633355014e-02       8.641107642376e+03 
       2.299992615110e-02       8.621470760960e+03 
       2.313362314912e-02       8.601501622457e+03 
       2.326742669807e-02       8.581311777751e+03 
       2.340133900379e-02       8.560881422199e+03 
       2.353536232536e-02       8.540189571340e+03 
       2.366949897648e-02       8.519269586992e+03 
       2.380375132678e-02       8.497901772449e+03 
       2.393812180328e-02       8.476687772536e+03 
       2.407261289180e-02       8.455107352567e+03 
       2.420722713852e-02       8.433288972714e+03 
       2.434196715146e-02       8.411061859511e+03 
       2.447683560216e-02       8.389085808009e+03 
       2.461183522726e-02       8.366625455350e+03 
       2.474696883025e-02       8.343934851401e+03 
       2.488223928324e-02       8.321156488744e+03 
       2.501764952876e-02       8.298106576077e+03 
       2.515320258161e-02       8.274828285762e+03 
       2.528890153088e-02       8.251519443876e+03 
       2.542474954189e-02       8.227925137334e+03 
       2.556074985830e-02       8.204120501418e+03 
       2.569690580423e-02       8.180008171563e+03 
       2.583322078649e-02       8.156102532282e+03 
       2.596969829688e-02       8.131881171967e+03 
       2.610634191455e-02       8.107525744570e+03 
       2.624315530844e-02       8.083098936027e+03 
       2.638014223984e-02       8.058396033455e+03 
       2.651730656499e-02       8.033565586339e+03 
       2.665465223784e-02       8.008643008442e+03 
       2.679218331281e-02       7.983551281757e+03 
       2.692990394772e-02       7.958344505341e+03 
       2.706781840682e-02       7.933097404046e+03 
       2.720593106394e-02       7.907597251192e+03 
       2.734424640564e-02       7.882132792105e+03 
       2.748276903465e-02       7.856369858505e+03 
       2.762150367334e-02       7.830583872328e+03 
       2.776045516726e-02       7.804762873838e+03 
       2.789962848899e-02       7.778717388286e+03 
       2.803902874191e-02       7.752781189730e+03 
       2.817866116432e-02       7.726516557480e+03 
       2.831853113357e-02       7.700271714193e+03 
       2.845864417041e-02       7.674004678255e+03 
       2.859900594353e-02       7.647483328035e+03 
       2.873962227420e-02       7.620951237985e+03 
       2.888049914118e-02       7.594392958924e+03 
       2.902164268576e-02       7.567769379824e+03 
       2.916305921703e-02       7.540966094257e+03 
       2.930475521734e-02       7.514139979909e+03 
       2.944673734804e-02       7.487307947400e+03 
       2.958901245535e-02       7.460386226214e+03 
       2.973158757658e-02       7.433380662440e+03 
       2.987446994652e-02       7.406417105475e+03 
       3.001766700418e-02       7.379195009783e+03 
       3.016118639972e-02       7.352081441085e+03 
       3.030503600178e-02       7.324906477609e+03 
       3.044922390502e-02       7.297618238207e+03 
       3.059375843807e-02       7.270327263051e+03 
       3.073864817176e-02       7.242990520269e+03 
       3.088390192779e-02       7.215770570432e+03 
       3.102952878768e-02       7.188248936475e+03 
       3.117553810225e-02       7.160819677038e+03 
       3.132193950140e-02       7.133406257921e+03 
       3.146874290441e-02       7.105991919242e+03 
       3.161595853073e-02       7.078418727641e+03 
       3.176359691120e-02       7.050917916874e+03 
       3.191166889985e-02       7.023292614335e+03 
       3.206018568627e-02       6.995732502214e+03 
       3.220915880849e-02       6.968136530375e+03 
       3.235860016661e-02       6.940556082547e+03 
       3.250852203697e-02       6.912921897186e+03 
       3.265893708706e-02       6.885283740734e+03 
       3.280985839123e-02       6.857647294021e+03 
       3.296129944711e-02       6.829961072783e+03 
       3.311327419288e-02       6.802329522494e+03 
       3.326579702544e-02       6.774672817289e+03 
       3.341888281952e-02       6.746981700661e+03 
       3.357254694779e-02       6.719317335534e+03 
       3.372680530199e-02       6.691643951920e+03 
       3.388167431526e-02       6.663943087494e+03 
       3.403717098562e-02       6.636257446999e+03 
       3.419331290073e-02       6.608598377316e+03 
       3.435011826405e-02       6.580970066364e+03 
       3.450760592243e-02       6.553314729069e+03 
       3.466579539525e-02       6.525585644791e+03 
       3.482470690522e-02       6.498026888854e+03 
       3.498436141102e-02       6.470321936540e+03 
       3.514478064168e-02       6.442695034776e+03 
       3.530598713320e-02       6.415082732499e+03 
       3.546800426716e-02       6.387492812962e+03 
       3.563085631176e-02       6.359893679718e+03 
       3.579456846537e-02       6.332301588951e+03 
       3.595916690270e-02       6.304709634492e+03 
       3.612467882395e-02       6.277149576229e+03 
       3.629113250695e-02       6.249609007835e+03 
       3.645855736277e-02       6.222071227390e+03 
       3.662698399483e-02       6.194545283819e+03 
       3.679644426196e-02       6.167049376822e+03 
       3.696697134564e-02       6.139578020557e+03 
       3.713859982174e-02       6.112078096650e+03 
       3.731136573720e-02       6.084619200200e+03 
       3.748530669201e-02       6.057241544376e+03 
       3.766046192691e-02       6.029748093956e+03 
       3.783687241735e-02       6.002303501192e+03 
       3.801458097423e-02       5.974891055024e+03 
       3.819363235199e-02       5.947466683294e+03 
       3.837407336470e-02       5.920096410765e+03 
       3.855595301090e-02       5.892775543537e+03 
       3.873932260798e-02       5.865348020042e+03 
       3.892423593692e-02       5.837990382405e+03 
       3.911074939843e-02       5.810652782729e+03 
       3.929892218156e-02       5.783296203182e+03 
       3.948881644593e-02       5.755963618053e+03 
       3.968049751901e-02       5.728625952784e+03 
       3.987403410981e-02       5.701278666210e+03 
       4.006949854080e-02       5.674010564023e+03 
       4.026696699980e-02       5.646634435551e+03 
       4.046651981397e-02       5.619292325022e+03 
       4.066824174824e-02       5.591957704673e+03 
       4.087222233088e-02       5.564661776561e+03 
       4.107855620902e-02       5.537318444983e+03 
       4.128734353767e-02       5.509882770711e+03 
       4.149869040587e-02       5.482514192531e+03 
       4.171270930433e-02       5.455115575282e+03 
       4.192951963951e-02       5.427711128196e+03 
       4.214924829956e-02       5.400290975267e+03 
       4.237203027853e-02       5.372795100586e+03 
       4.259800936617e-02       5.345330202762e+03 
       4.282733891146e-02       5.317799369245e+03 
       4.306018266955e-02       5.290231965028e+03 
       4.329671574311e-02       5.262640050512e+03 
       4.353712563067e-02       5.234999179025e+03 
       4.378161339674e-02       5.207337775148e+03 
       4.403039498090e-02       5.179517703883e+03 
       4.428370266542e-02       5.151667649875e+03 
       4.454178672511e-02       5.123767995898e+03 
       4.480491728619e-02       5.095766045597e+03 
       4.507338642648e-02       5.067708234164e+03 
       4.534751055460e-02       5.039557029285e+03 
       4.562763311281e-02       5.011304745815e+03 
       4.591412765656e-02       4.982932090294e+03 
       4.620740137416e-02       4.954394923475e+03 
       4.650789912206e-02       4.925805194790e+03 
       4.681610806681e-02       4.897100113079e+03 
       4.713256304325e-02       4.868166467850e+03 
       4.745785276177e-02       4.839037739696e+03 
       4.779262702589e-02       4.809765126826e+03 
       4.813760515749e-02       4.780281188517e+03 
       4.849358587116e-02       4.750552036217e+03 
       4.886145889551e-02       4.720584174562e+03 
       4.924221870971e-02       4.690383871324e+03 
       4.963698085278e-02       4.659800785955e+03 
       5.004700137647e-02       4.629033972755e+03 
       5.047370015656e-02       4.597779200771e+03 
       5.091868896123e-02       4.566179295975e+03 
       5.138380540906e-02       4.534109271348e+03 
       5.187115424708e-02       4.501559741104e+03 
       5.238315775705e-02       4.468459234674e+03 
       5.292261757128e-02       4.434689711865e+03 
       5.349279076425e-02       4.400283804861e+03 
       5.409748378617e-02       4.365005749530e+03 
       5.474116859746e-02       4.328690993358e+03 
       5.542912616527e-02       4.291364740623e+03 
       5.616762307707e-02       4.252867160788e+03 
       5.696412692793e-02       4.212615866079e+03 
       5.782756434085e-02       4.170739722163e+03 
       5.876861999985e-02       4.126431025875e+03 
       5.980006221617e-02       4.079295779536e+03 
       6.093705389683e-02       4.028561585493e+03 
       6.219735751136e-02       3.973156357800e+03 
